 #              _____________________  _______________________
 #              ___  __ \__  __ \_  / / /_  /___  ____/_  ___/
 #              __  / / /_  /_/ /  / / /_  __/_  __/  _____ \ 
 #              _  /_/ /_  _, _// /_/ / / /_ _  /___  ____/ / 
 #              /_____/ /_/ |_| \____/  \__/ /_____/  /____/  
 # 
  
 #        time                      h  [L]                   theta [-]       Darcian flow [L.T^{-1}]   in    x              directions   cumulative flux
 #-----------------------------------------------------------------------------------------------

     0.000000000000E+000    -0.400000000000E+003     0.769244544485E-001     0.000000000000E+000     0.000000000000E+000
     0.100000000000E-003    -0.370291489996E+003     0.788512729234E-001    -0.216491373783E-002     0.216491373783E-006
     0.206000000000E-003    -0.341813072342E+003     0.809934248915E-001    -0.585460672800E-002     0.837079686951E-006
     0.318360000000E-003    -0.314593751769E+003     0.833806176108E-001    -0.120043949092E-001     0.218589349895E-005
     0.437461600000E-003    -0.288655646663E+003     0.860474217917E-001    -0.221271006828E-001     0.482126659364E-005
     0.563709296000E-003    -0.264014015207E+003     0.890341675606E-001    -0.386857120467E-001     0.970524860766E-005
     0.697531853760E-003    -0.240677344118E+003     0.923880089048E-001    -0.657203365505E-001     0.185001121417E-004
     0.839383764986E-003    -0.218647529095E+003     0.961641806887E-001    -0.109913313419E+000     0.340915257193E-004
     0.989746790885E-003    -0.197920175709E+003     0.100427451980E+000    -0.182416240348E+000     0.615201835912E-004
     0.114913159834E-002    -0.178485067475E+003     0.105253760188E+000    -0.302013600008E+000     0.109656563077E-003
     0.131807949424E-002    -0.160326848192E+003     0.110731921492E+000    -0.500646067662E+000     0.194239662799E-003
     0.149716426389E-002    -0.143425977685E+003     0.116965179348E+000    -0.833113624019E+000     0.343437624252E-003
     0.168699411973E-002    -0.127759995564E+003     0.124072086923E+000    -0.139416614858E+001     0.608091983246E-003
     0.188821376691E-002    -0.113305105208E+003     0.132185718568E+000    -0.234849267101E+001     0.108065484992E-002
     0.210150659292E-002    -0.100038028731E+003     0.141449425624E+000    -0.398260178964E+001     0.193011524052E-002
     0.232759698850E-002    -0.879379884236E+002     0.152006137146E+000    -0.679172641287E+001     0.346565935185E-002
     0.256725280781E-002    -0.769885338639E+002     0.163976677153E+000    -0.116162289169E+002     0.624955621022E-002
     0.282128797628E-002    -0.671787457664E+002     0.177421587105E+000    -0.198292779752E+002     0.112868901813E-001
     0.309056525485E-002    -0.585031535641E+002     0.192282197200E+000    -0.335238326487E+002     0.203140966044E-001
     0.337599917015E-002    -0.509596204958E+002     0.208304522528E+000    -0.555135682285E+002     0.361595517356E-001
     0.367855912035E-002    -0.445445735900E+002     0.224967031414E+000    -0.887549865683E+002     0.630132560525E-001
     0.399927266758E-002    -0.392455980764E+002     0.241458118181E+000    -0.134740852066E+003     0.106226472674E+000
     0.433922902763E-002    -0.350324404152E+002     0.256757976625E+000    -0.191034765259E+003     0.171169956116E+000
     0.469958276929E-002    -0.318487090735E+002     0.269842344302E+000    -0.249617559772E+003     0.261120577763E+000
     0.508155773545E-002    -0.296072441898E+002     0.279941791497E+000    -0.298555775899E+003     0.375161410158E+000
     0.548645119957E-002    -0.281914421923E+002     0.286729662085E+000    -0.327227198885E+003     0.507653564271E+000
     0.591563827155E-002    -0.274629042962E+002     0.290351538108E+000    -0.331449296265E+003     0.649907317243E+000
     0.637057656784E-002    -0.272735294061E+002     0.291307668976E+000    -0.314453436525E+003     0.792964227919E+000
     0.685281116191E-002    -0.274786299685E+002     0.290272419496E+000    -0.283777345954E+003     0.929811481152E+000
     0.736397983162E-002    -0.279477015541E+002     0.287931465363E+000    -0.247269058364E+003     0.105620767678E+001
     0.790581862152E-002    -0.285711844921E+002     0.284876932976E+000    -0.210714674045E+003     0.117038106078E+001
     0.848016773881E-002    -0.292628148830E+002     0.281563194801E+000    -0.177368056930E+003     0.127225224771E+001
     0.908897780314E-002    -0.299586463598E+002     0.278307050958E+000    -0.148529434011E+003     0.136267846198E+001
     0.973431647133E-002    -0.306140417263E+002     0.275309914103E+000    -0.124321176961E+003     0.144290772475E+001
     0.104183754596E-001    -0.311998614365E+002     0.272686982685E+000    -0.104297909261E+003     0.151425364704E+001
     0.111434779872E-001    -0.316986505541E+002     0.270494643077E+000    -0.878207448845E+002     0.157793269113E+001
     0.119120866664E-001    -0.321011732280E+002     0.268752391815E+000    -0.742467210179E+002     0.163499936531E+001
     0.127268118664E-001    -0.324035496716E+002     0.267459217220E+000    -0.630102332510E+002     0.168633539019E+001
     0.135904205784E-001    -0.326047901014E+002     0.266605911620E+000    -0.536472662305E+002     0.173266563669E+001
     0.145058458131E-001    -0.327048638761E+002     0.266183742722E+000    -0.457923978139E+002     0.177458515320E+001
     0.154761965619E-001    -0.327031427722E+002     0.266190986842E+000    -0.391663396617E+002     0.181259024022E+001
     0.165047683556E-001    -0.325973669707E+002     0.266637261899E+000    -0.335608149132E+002     0.184710994781E+001
     0.175950544569E-001    -0.323833580725E+002     0.267545171610E+000    -0.288240949127E+002     0.187853645788E+001
     0.187507577243E-001    -0.320559454207E+002     0.268946977953E+000    -0.248469086494E+002     0.190725211139E+001
     0.199758031878E-001    -0.316115372922E+002     0.270874885545E+000    -0.215510651814E+002     0.193365314603E+001
     0.212743513791E-001    -0.310524906738E+002     0.273341894593E+000    -0.188782122563E+002     0.195816741440E+001
     0.226508124618E-001    -0.303925677953E+002     0.276315215640E+000    -0.167809347228E+002     0.198126571798E+001
     0.241098612095E-001    -0.296615500558E+002     0.279687886557E+000    -0.152139185668E+002     0.200346356682E+001
     0.256564528821E-001    -0.289057689728E+002     0.283264132661E+000    -0.141254359125E+002     0.202530984837E+001
     0.272958400550E-001    -0.281815367518E+002     0.286778333867E+000    -0.134489288213E+002     0.204735784977E+001
     0.290335904583E-001    -0.275411848934E+002     0.289958066773E+000    -0.130960697202E+002     0.207011555021E+001
     0.308756058858E-001    -0.270165370545E+002     0.292614956645E+000    -0.129589073719E+002     0.209398605751E+001
     0.328281422390E-001    -0.266093285124E+002     0.294709582348E+000    -0.129244998928E+002     0.211922161340E+001
     0.348978307733E-001    -0.262943467863E+002     0.296349463345E+000    -0.128986445553E+002     0.214591779014E+001
     0.370917006197E-001    -0.256587547687E+002     0.299711393420E+000    -0.140894970311E+002     0.217682831283E+001
     0.394172026569E-001    -0.252473046557E+002     0.301925665294E+000    -0.144170377776E+002     0.221035516355E+001
     0.418822348163E-001    -0.248993184731E+002     0.303821935492E+000    -0.143243376380E+002     0.224566511649E+001
     0.444951689053E-001    -0.245331780739E+002     0.305840553193E+000    -0.140238112325E+002     0.228230841092E+001
     0.472648790396E-001    -0.241144543402E+002     0.308178588832E+000    -0.136521940701E+002     0.232012103119E+001
     0.502007717820E-001    -0.236486597675E+002     0.310816632109E+000    -0.133250320840E+002     0.235924189618E+001
     0.533128180889E-001    -0.231690714399E+002     0.313574026939E+000    -0.131125919682E+002     0.240004888958E+001
     0.566115871742E-001    -0.227144190468E+002     0.316226632498E+000    -0.130096771890E+002     0.244296481051E+001
     0.601082824047E-001    -0.223088295751E+002     0.318624743874E+000    -0.129576456163E+002     0.248827374813E+001
     0.638147793490E-001    -0.219517680532E+002     0.320760688320E+000    -0.128907104416E+002     0.253605312699E+001
     0.677436661099E-001    -0.216188397982E+002     0.322773186588E+000    -0.127675247017E+002     0.258621528576E+001
     0.719082860765E-001    -0.212754174585E+002     0.324870107859E+000    -0.125937171154E+002     0.263866333151E+001
     0.763227832411E-001    -0.209004207233E+002     0.327184054234E+000    -0.124265190640E+002     0.269352016469E+001
     0.810021502355E-001    -0.205022718796E+002     0.329668481311E+000    -0.123205224313E+002     0.275117241071E+001
     0.859622792497E-001    -0.201122266338E+002     0.332129654710E+000    -0.122651221556E+002     0.281200899897E+001
     0.912200160047E-001    -0.197547252738E+002     0.334408906088E+000    -0.122069013163E+002     0.287618967269E+001
     0.967932169649E-001    -0.194235873087E+002     0.336539910250E+000    -0.121096311578E+002     0.294367908069E+001
     0.102700809983E+000    -0.190904556091E+002     0.338702629726E+000    -0.119973976992E+002     0.301455482357E+001
     0.108962858582E+000    -0.187362011927E+002     0.341023028371E+000    -0.119297694691E+002     0.308925961976E+001
     0.115600630097E+000    -0.184495171151E+002     0.342916000819E+000    -0.112605398404E+002     0.316400451035E+001
     0.122636667903E+000    -0.180896404944E+002     0.345311184313E+000    -0.111233855803E+002     0.324226907182E+001
     0.130094867977E+000    -0.177328783227E+002     0.347705859612E+000    -0.110578493583E+002     0.332474072473E+001
     0.138000560055E+000    -0.173276695585E+002     0.350449395974E+000    -0.116440706608E+002     0.341679516191E+001
     0.146380593659E+000    -0.170837538410E+002     0.352112626069E+000    -0.109556483780E+002     0.350860386347E+001
     0.155263429278E+000    -0.168167858903E+002     0.353942866628E+000    -0.107861742634E+002     0.360441567641E+001
     0.164146264898E+000    -0.165266632091E+002     0.355943098254E+000    -0.107210071932E+002     0.369964862098E+001
     0.173029100517E+000    -0.162491454381E+002     0.357866951207E+000    -0.106659149914E+002     0.379439219058E+001
     0.181911936137E+000    -0.159422469431E+002     0.360006046357E+000    -0.106366217375E+002     0.388887555303E+001
     0.191327741893E+000    -0.157066399703E+002     0.361656056969E+000    -0.105933894461E+002     0.398862085035E+001
     0.200743547650E+000    -0.154753538762E+002     0.363282113169E+000    -0.105519534962E+002     0.408797599483E+001
     0.210159353407E+000    -0.152155674115E+002     0.365115580573E+000    -0.105163031059E+002     0.418699546215E+001
     0.220140107509E+000    -0.150141457299E+002     0.366541999940E+000    -0.104899110465E+002     0.429169268486E+001
     0.230120861611E+000    -0.148142950588E+002     0.367961256021E+000    -0.104606909004E+002     0.439609826847E+001
     0.240101615713E+000    -0.146238063771E+002     0.369317494417E+000    -0.104330166629E+002     0.450022764233E+001
     0.250082369815E+000    -0.144404047350E+002     0.370626258532E+000    -0.104164969082E+002     0.460419213658E+001
     0.260063123917E+000    -0.142659102232E+002     0.371874036126E+000    -0.103976461372E+002     0.470796848591E+001
     0.270043878019E+000    -0.141024209630E+002     0.373045200419E+000    -0.103756730229E+002     0.481152552700E+001
     0.280024632121E+000    -0.139467676113E+002     0.374161999367E+000    -0.103614757712E+002     0.491494086880E+001
     0.290005386223E+000    -0.137984027489E+002     0.375227978140E+000    -0.103474319789E+002     0.501821604297E+001
     0.299986140325E+000    -0.136587290551E+002     0.376232733354E+000    -0.103296655786E+002     0.512131389507E+001
     0.309966894428E+000    -0.135155219738E+002     0.377264007216E+000    -0.102739920879E+002     0.522385608375E+001
     0.320546493776E+000    -0.133834701677E+002     0.378215844174E+000    -0.102973679916E+002     0.533279811144E+001
     0.331126093124E+000    -0.132606191804E+002     0.379102055178E+000    -0.102839913884E+002     0.544159862003E+001
     0.341705692472E+000    -0.131436208834E+002     0.379946596940E+000    -0.102710594067E+002     0.555026231343E+001
     0.352285291820E+000    -0.130307170993E+002     0.380762041591E+000    -0.102622868098E+002     0.565883319628E+001
     0.362864891169E+000    -0.129229616282E+002     0.381540653053E+000    -0.102504444721E+002     0.576727879193E+001
     0.373444490517E+000    -0.128206891803E+002     0.382279916583E+000    -0.102387373767E+002     0.587560053121E+001
     0.384024089865E+000    -0.127224060197E+002     0.382990549360E+000    -0.102310944672E+002     0.598384141157E+001
     0.394603689213E+000    -0.126285458942E+002     0.383669349703E+000    -0.102216811167E+002     0.609198270244E+001
     0.405183288561E+000    -0.125394810385E+002     0.384313569241E+000    -0.102112260928E+002     0.620001338336E+001
     0.415762887910E+000    -0.124540273243E+002     0.384931730475E+000    -0.102041955051E+002     0.630796968348E+001
     0.426342487258E+000    -0.123722049149E+002     0.385523651751E+000    -0.101967177336E+002     0.641584687176E+001
     0.436922086606E+000    -0.122944169787E+002     0.386086388114E+000    -0.101875795159E+002     0.652362738137E+001
     0.447501685954E+000    -0.122198727867E+002     0.386625637084E+000    -0.101808892707E+002     0.663133711086E+001
     0.458081285303E+000    -0.121482888564E+002     0.387143437760E+000    -0.101747431937E+002     0.673898181732E+001
     0.468660884651E+000    -0.120800683310E+002     0.387636852153E+000    -0.101670383112E+002     0.684654500921E+001
     0.479240483999E+000    -0.120147625068E+002     0.388109127278E+000    -0.101605767990E+002     0.695403984089E+001
     0.489820083347E+000    -0.119519104942E+002     0.388563590306E+000    -0.101553707311E+002     0.706147959446E+001
     0.500399682695E+000    -0.118918432727E+002     0.388997835660E+000    -0.101489694304E+002     0.716885162483E+001
     0.510979282044E+000    -0.118343974154E+002     0.389413048704E+000    -0.101428515509E+002     0.727615893049E+001
     0.521558881392E+000    -0.117790361307E+002     0.389813112046E+000    -0.101383056472E+002     0.738341814230E+001
     0.532138480740E+000    -0.117259789305E+002     0.390196440190E+000    -0.101330684912E+002     0.749062194711E+001
     0.542718080088E+000    -0.116752493175E+002     0.390562866346E+000    -0.101274128602E+002     0.759776591760E+001
     0.553297679436E+000    -0.116293377785E+002     0.390894413156E+000    -0.100949473069E+002     0.770456641555E+001
     0.564512054746E+000    -0.115758284940E+002     0.391280724326E+000    -0.101170003089E+002     0.781802225402E+001
     0.575726430055E+000    -0.115281830230E+002     0.391624604164E+000    -0.101129430788E+002     0.793143259318E+001
     0.586940805364E+000    -0.114828646479E+002     0.391951597903E+000    -0.101089467162E+002     0.804479811564E+001
     0.598155180673E+000    -0.114393547683E+002     0.392265456222E+000    -0.101053802038E+002     0.815812364189E+001
     0.609369555982E+000    -0.113978329094E+002     0.392564893621E+000    -0.101008099148E+002     0.827139791520E+001
     0.620583931291E+000    -0.113579601827E+002     0.392852339562E+000    -0.100969767320E+002     0.838462920176E+001
     0.631798306600E+000    -0.113194825657E+002     0.393129649314E+000    -0.100939078778E+002     0.849782607304E+001
     0.643012681909E+000    -0.112826743389E+002     0.393394858670E+000    -0.100899955639E+002     0.861097907016E+001
     0.654227057218E+000    -0.112473589025E+002     0.393649251893E+000    -0.100863172203E+002     0.872409081695E+001
     0.665441432527E+000    -0.112132463333E+002     0.393894883412E+000    -0.100836121649E+002     0.883717222824E+001
     0.676655807837E+000    -0.111805588494E+002     0.394130196379E+000    -0.100803760772E+002     0.895021734883E+001
     0.687870183146E+000    -0.111492367732E+002     0.394355637079E+000    -0.100769659031E+002     0.906322422644E+001
     0.699084558455E+000    -0.111189834648E+002     0.394573287788E+000    -0.100745173593E+002     0.917620364517E+001
     0.710298933764E+000    -0.110899427292E+002     0.394782183294E+000    -0.100717469985E+002     0.928915199603E+001
     0.721513309073E+000    -0.110621306767E+002     0.394982175022E+000    -0.100687360728E+002     0.940206658123E+001
     0.732727684382E+000    -0.110352700698E+002     0.395175276555E+000    -0.100664594303E+002     0.951495563532E+001
     0.743942059691E+000    -0.110094403245E+002     0.395360921885E+000    -0.100640741856E+002     0.962781794038E+001
     0.755156435000E+000    -0.109847015196E+002     0.395538673635E+000    -0.100614333063E+002     0.974065062962E+001
     0.766370810309E+000    -0.109608390669E+002     0.395710090937E+000    -0.100592756473E+002     0.985345912207E+001
     0.777585185618E+000    -0.109378419971E+002     0.395875248965E+000    -0.100572551493E+002     0.996624495589E+001
     0.788799560928E+000    -0.109158104725E+002     0.396033428562E+000    -0.100549299979E+002     0.100790047146E+002
     0.800013936237E+000    -0.108945802029E+002     0.396185837999E+000    -0.100528959438E+002     0.101917416627E+002
     0.811228311546E+000    -0.108740878918E+002     0.396332884188E+000    -0.100511765024E+002     0.103044593282E+002
     0.822442686855E+000    -0.108544393840E+002     0.396473875517E+000    -0.100491198246E+002     0.104171539295E+002
     0.833657062164E+000    -0.108355273679E+002     0.396609526163E+000    -0.100472841743E+002     0.105298279451E+002
     0.844871437473E+000    -0.108172593895E+002     0.396740535040E+000    -0.100457284455E+002     0.106424845141E+002
     0.856085812782E+000    -0.107997156357E+002     0.396866350138E+000    -0.100439316158E+002     0.107551209328E+002
     0.867300188091E+000    -0.107828515993E+002     0.396987221089E+000    -0.100422812927E+002     0.108677388442E+002
     0.878514563400E+000    -0.107686305978E+002     0.397089145502E+000    -0.100304451386E+002     0.109802240205E+002
     0.890401801228E+000    -0.107503130273E+002     0.397220430744E+000    -0.100392801611E+002     0.110995633314E+002
     0.902289039056E+000    -0.107341100184E+002     0.397336494095E+000    -0.100380883257E+002     0.112188884746E+002
     0.914176276883E+000    -0.107186630072E+002     0.397447136243E+000    -0.100368364163E+002     0.113381987362E+002
     0.926063514711E+000    -0.107039018544E+002     0.397552865800E+000    -0.100354272268E+002     0.114574922463E+002
     0.937950752539E+000    -0.106898011690E+002     0.397653822237E+000    -0.100339772588E+002     0.115767685203E+002
     0.949837990366E+000    -0.106762157279E+002     0.397751067442E+000    -0.100328158201E+002     0.116960309881E+002
     0.961725228194E+000    -0.106631670859E+002     0.397844470213E+000    -0.100315967717E+002     0.118152789647E+002
     0.973612466022E+000    -0.106506742741E+002     0.397933894328E+000    -0.100302431258E+002     0.119345108502E+002
     0.985499703849E+000    -0.106386213018E+002     0.398020120502E+000    -0.100292074787E+002     0.120537304247E+002
     0.997386941677E+000    -0.106270246876E+002     0.398103073881E+000    -0.100281696993E+002     0.121729376629E+002
     0.100927417950E+001    -0.106159171552E+002     0.398182528741E+000    -0.100269926926E+002     0.122921309097E+002
